Wavelength (nm),Absorbance (AU),Std.Dev.
190,2.57178449630737,0.0968767719722014
191,2.8490743637085,0.116655285598034
192,2.57612752914429,0.0526438748904045
193,1.67153787612915,0.00553656492970992
194,1.3465371131897,0.0020508743446655
195,1.06762218475342,0.000892264132498864
196,0.884104728698731,0.000572649464918328
197,0.748150825500488,0.000445332209355889
198,0.643687725067139,0.000315347666380856
199,0.560584545135498,0.000242086801773339
200,0.489469051361084,0.000181664318864582
201,0.429440975189209,0.000172559718752801
202,0.378116607666016,0.000132858846796173
203,0.332958221435547,0.000118689356876516
204,0.29399299621582,0.000121538299308675
205,0.260427474975586,0.000101228833861087
206,0.231315135955811,0.0000951191531356177
207,0.205901622772217,0.000115374886587804
208,0.183840751647949,0.000120019069679279
209,0.166234016418457,0.000132622464302194
210,0.15386438369751,0.000149975709598409
211,0.146925449371338,0.000119456987534498
212,0.145479202270508,0.000164563404923424
213,0.14869499206543,0.000194586955945692
214,0.155192852020264,0.000156242591153268
215,0.163840293884277,0.000152757669409388
216,0.174065589904785,0.000124376828157241
217,0.185523509979248,0.000134187093662917
218,0.197603702545166,0.000141671200597457
219,0.209860324859619,0.000132413137040018
220,0.222295761108398,0.000115622932938757
221,0.234288692474365,0.00013735890065183
222,0.245217800140381,0.000116285713765535
223,0.254934787750244,0.000110825408639411
224,0.262997627258301,0.000104450197199992
225,0.269124031066895,0.000102629713734533
226,0.273643493652344,0.000115609166547917
227,0.276134014129639,0.000102941621891766
228,0.276557922363281,0.00011823446330745
229,0.274291038513184,0.000109531477717991
230,0.268702983856201,0.0000929331032949816
231,0.260293960571289,0.0000783291213927501
232,0.248639583587646,0.0000824762890062057
233,0.234753608703613,0.000100862049288526
234,0.219844341278076,0.000110595386417306
235,0.204411506652832,0.000105739647797056
236,0.188199996948242,0.0000944546890156415
237,0.170125007629395,0.0000962242735041387
238,0.150718688964844,0.000072430606883428
239,0.130736827850342,0.0000761627022098595
240,0.110927581787109,0.0000970454410926071
241,0.0925240516662598,0.000106190254072262
242,0.0766830444335938,0.000148895409097853
243,0.0640220642089844,0.000144851795880829
244,0.0547680854797363,0.000103457181470475
245,0.0492739677429199,0.000115309833893599
246,0.0473952293395996,0.000146453451826548
247,0.0484428405761719,0.000139673409613388
248,0.0519232749938965,0.000152644504534951
249,0.0575299263000488,0.000148815980284951
250,0.0654253959655762,0.000147600935248625
251,0.0754094123840332,0.000123948313834228
252,0.0869312286376953,0.000114641411313581
253,0.100135803222656,0.000154554096831382
254,0.114675998687744,0.00013879811516355
255,0.131050109863281,0.000134220978437494
256,0.149199485778809,0.000116568887752429
257,0.169247150421143,0.000141378799898937
258,0.191163539886475,0.000114494549582083
259,0.214695930480957,0.000156617598330507
260,0.23987340927124,0.000138335382386446
261,0.26779317855835,0.000160322268468247
262,0.297607898712158,0.000178808212188718
263,0.329648494720459,0.000130716016471617
264,0.364028930664062,0.000169628075152641
265,0.40033483505249,0.000197177786556674
266,0.438626289367676,0.000179382057488273
267,0.480362892150879,0.000169973552932563
268,0.523427963256836,0.000189063377651727
269,0.569549083709717,0.000197974151540555
270,0.617321968078613,0.000248043338119642
271,0.666795253753662,0.000314226642414796
272,0.718785285949707,0.000470493075883075
273,0.772421836853027,0.000349591561748048
274,0.82767391204834,0.000414820922297126
275,0.883045196533203,0.000620260860289897
276,0.938502788543701,0.000618216387325528
277,0.994837284088135,0.000672512843964814
278,1.05377626419067,0.000728277561265974
279,1.11100721359253,0.000820629961028941
280,1.16834020614624,0.00128189721711536
281,1.22373485565186,0.00154814684244517
282,1.28197526931763,0.0013115237655696
283,1.33570575714111,0.00274055667757237
284,1.38676643371582,0.00346290477356062
285,1.43745946884155,0.0026871936257518
286,1.47260284423828,0.00214123820132931
287,1.51259851455688,0.00241831348408305
288,1.54820108413696,0.00341442469371292
289,1.57827520370483,0.00432693629690743
290,1.62175941467285,0.00280330160428831
291,1.63084316253662,0.00361720207491548
292,1.63209390640259,0.00376091233638496
293,1.63148784637451,0.00293556260074913
294,1.63905382156372,0.00267542753178832
295,1.63133382797241,0.0026331913276502
296,1.60371494293213,0.00363332242360723
297,1.56941413879395,0.00313247739754793
298,1.52231740951538,0.00198575420959441
299,1.47465658187866,0.00112333604987246
300,1.42753791809082,0.0016496437685229
301,1.37181806564331,0.00150475180994537
302,1.30334711074829,0.0012956949317128
303,1.22631311416626,0.000922005305738928
304,1.14960336685181,0.000937981233664651
305,1.07174873352051,0.000776888174714832
306,0.992588043212891,0.000825333358007449
307,0.911395072937012,0.000699973560742913
308,0.830070018768311,0.000465439966058672
309,0.753501415252686,0.000460584216185414
310,0.678190231323242,0.000395543823839769
311,0.604952812194824,0.000287927527437037
312,0.53519868850708,0.000258049538044552
313,0.470598697662354,0.000128541006091865
314,0.409838676452637,0.000126353749429615
315,0.353020191192627,0.000136765010279172
316,0.301424503326416,0.000194320356700497
317,0.254836559295654,0.00016223398896226
318,0.211851596832275,0.000118253692488267
319,0.174472808837891,0.000128374623645507
320,0.141434192657471,0.000110927943132634
321,0.1127610206604,0.000111463681859021
322,0.0879325866699219,0.000111375932038663
323,0.0670919418334961,0.00011235562496203
324,0.0488266944885254,0.0000922381059418224
325,0.0340237617492676,0.000128625884331076
326,0.0214648246765137,0.000098745595839549
327,0.0113511085510254,0.000139689687617011
328,0.0028223991394043,0.000119802904341583
329,-0.00392770767211914,0.000153725082000843
330,-0.00921440124511719,0.000135374732652458
331,-0.0137624740600586,0.000105550250351989
332,-0.0170626640319824,0.000147748745618884
333,-0.0197043418884277,0.000126130413950847
334,-0.0219306945800781,0.000153574140422063
335,-0.0237717628479004,0.000139158043929013
336,-0.0253410339355469,0.000134664081546084
337,-0.0265889167785645,0.000108628905030626
338,-0.0272464752197266,0.00009223317566382
339,-0.0276103019714355,0.000100904871965371
340,-0.0284528732299805,0.000129857388182467
341,-0.0288243293762207,0.000104693721867247
342,-0.0291585922241211,0.0000824225131556475
343,-0.0297670364379883,0.000137199897385509
344,-0.0298504829406738,0.000175496805044532
345,-0.0295953750610352,0.000143343309235046
346,-0.030057430267334,0.000184397312671532
347,-0.0300107002258301,0.00018014097523678
348,-0.0301728248596191,0.00018992729888491
349,-0.0303564071655273,0.000205352456382688
350,-0.0306143760681152,0.000213984626212866
351,-0.0306801795959473,0.000190649013272173
352,-0.0305867195129395,0.000210539670311818
353,-0.0304684638977051,0.000170409085241685
354,-0.0304388999938965,0.000256323813283269
355,-0.0301699638366699,0.000224974176637372
356,-0.0300779342651367,0.000252441032250753
357,-0.0305261611938477,0.000230627555051612
358,-0.0310101509094238,0.000212449015225261
359,-0.0307636260986328,0.000186993137051503
360,-0.0311212539672852,0.000191619727846526
361,-0.0308852195739746,0.000200634582015339
362,-0.0311899185180664,0.000270977792895173
363,-0.031712532043457,0.000259069625799774
364,-0.0320391654968262,0.000282918379950175
365,-0.0318245887756348,0.000228519948333615
366,-0.0316219329833984,0.000195468341225582
367,-0.0313940048217773,0.00022996408182429
368,-0.0318984985351562,0.000223029334907687
369,-0.031735897064209,0.00017288092691116
370,-0.0318160057067871,0.000191249154054338
371,-0.0318484306335449,0.000284444456211964
372,-0.0319690704345703,0.00027806762049172
373,-0.0318746566772461,0.000255705676706364
374,-0.0316648483276367,0.000247205922262244
375,-0.0322561264038086,0.000249410905179507
376,-0.0321660041809082,0.00018782300309698
377,-0.0317668914794922,0.000240556666702472
378,-0.0314550399780273,0.000210323568115491
379,-0.0323524475097656,0.00015630370014502
380,-0.0328035354614258,0.000175693625889425
381,-0.0332832336425781,0.000237394038890318
382,-0.0328874588012695,0.00022156463170573
383,-0.0333681106567383,0.00017006716617584
384,-0.0330400466918945,0.000138243307861012
385,-0.0335607528686523,0.000133265535835489
386,-0.0334796905517578,0.000211173729941322
387,-0.0325422286987305,0.000204620375551455
388,-0.0330619812011719,0.000142318119044917
389,-0.0344753265380859,0.000195296108034824
390,-0.0333833694458008,0.000173028167050805
391,-0.0329103469848633,0.000134653950460226
392,-0.0323753356933594,0.000138210409236558
393,-0.033808708190918,0.000123053554559864
394,-0.034480094909668,0.000162211563142066
395,-0.0343942642211914,0.000152927259706663
396,-0.0342283248901367,0.000147517726830781
397,-0.0330338478088379,0.000146967988597535
398,-0.0330195426940918,0.000140229044591456
399,-0.0345125198364258,0.000211474994918024
400,-0.0349469184875488,0.000227622701351601
401,-0.0348877906799316,0.000157176984906373
402,-0.0343561172485352,0.000139409441151544
403,-0.0335607528686523,0.000155720736379808
404,-0.0334997177124023,0.000191049316595352
405,-0.0335288047790527,0.000149383272164927
406,-0.0355434417724609,0.000185587080251134
407,-0.0351972579956055,0.000246756664133502
408,-0.0335917472839355,0.000199844267729282
409,-0.035099983215332,0.0002353431714509
410,-0.0347104072570801,0.000212157707356443
411,-0.0344152450561523,0.000169182468830242
412,-0.0334229469299316,0.000147831824005867
413,-0.0341897010803223,0.000174774966896709
414,-0.0356326103210449,0.000221055041419226
415,-0.0349297523498535,0.000265155762573349
416,-0.0351543426513672,0.000231501371047067
417,-0.0352354049682617,0.000229881013030251
418,-0.0348243713378906,0.000167148938805374
419,-0.0349612236022949,0.000194348437000738
420,-0.0334954261779785,0.000190701481759037
421,-0.0323700904846191,0.000248980237916271
422,-0.0347175598144531,0.000216427346078792
423,-0.035057544708252,0.000147699491931169
424,-0.0367908477783203,0.000222951841056982
425,-0.0352559089660645,0.000149681303052433
426,-0.0357866287231445,0.000236303484337516
427,-0.0330715179443359,0.000247698430720911
428,-0.0364742279052734,0.000222343189708094
429,-0.0326852798461914,0.000231658464928035
430,-0.0329136848449707,0.000232426690153924
431,-0.0355362892150879,0.000208193896397311
432,-0.035733699798584,0.000244319373498625
433,-0.0332231521606445,0.000235899009795884
434,-0.033836841583252,0.000259770800693119
435,-0.035454273223877,0.000292453212932815
436,-0.0344257354736328,0.000316562417573767
437,-0.034548282623291,0.000290894116566412
438,-0.0339407920837402,0.000289879344704317
439,-0.034454345703125,0.000317044719937021
440,-0.0342559814453125,0.000273270545381627
441,-0.0322179794311523,0.000181859465894054
442,-0.0357670783996582,0.000201949403111031
443,-0.0349831581115723,0.000246660814824329
444,-0.0354514122009277,0.00024656492825483
445,-0.0336999893188477,0.000206456723536169
446,-0.0336184501647949,0.000254886299233685
447,-0.0343399047851562,0.000329452724544177
448,-0.0334329605102539,0.000269861186094559
449,-0.0342593193054199,0.000218950829481076
450,-0.0352482795715332,0.000275966389887714
451,-0.03515625,0.000171624285611384
452,-0.0345611572265625,0.000223733701967715
453,-0.0349011421203613,0.000365514888495169
454,-0.034733772277832,0.000345093083457416
455,-0.0345988273620605,0.000277497923252968
456,-0.035062313079834,0.00029341569226922
457,-0.0344953536987305,0.00030830684434779
458,-0.0361990928649902,0.000255805247802227
459,-0.0355892181396484,0.000214515253375845
460,-0.034785270690918,0.000270534392713886
461,-0.0329813957214355,0.000337638421834699
462,-0.0346012115478516,0.000272697496863762
463,-0.033116340637207,0.000234588374423961
464,-0.033909797668457,0.000264283096541103
465,-0.0344038009643555,0.000215065716824798
466,-0.0360846519470215,0.000255135953552791
467,-0.0355439186096191,0.000284457245693151
468,-0.0350289344787598,0.000336602453894894
469,-0.0358567237854004,0.000397351582641595
470,-0.0350480079650879,0.000376439305192532
471,-0.0348420143127441,0.000396480849795337
472,-0.0331425666809082,0.000321607486642374
473,-0.0351200103759766,0.000347064083856003
474,-0.0356335639953613,0.000359948575821275
475,-0.0343589782714844,0.000378876454494371
476,-0.0351710319519043,0.000252477057686161
477,-0.0340299606323242,0.000287573528411098
478,-0.0329833030700684,0.000252750683189048
479,-0.0348873138427734,0.000242896935559117
480,-0.0363340377807617,0.000234487551248215
481,-0.0354509353637695,0.000337950745922889
482,-0.0344219207763672,0.000423491533837463
483,-0.0342683792114258,0.000280918202121958
484,-0.0348525047302246,0.000193659297536443
485,-0.0238533020019531,0.000164693231466791
486,-0.0461854934692383,0.000183700548215248
487,-0.0419511795043945,0.000236241894844234
488,-0.0395083427429199,0.000327275682015017
489,-0.0356698036193848,0.000368725567297186
490,-0.0376448631286621,0.000329397507460986
491,-0.0365018844604492,0.000295460554820729
492,-0.0353493690490723,0.00030467469084542
493,-0.0354156494140625,0.000264956745602841
494,-0.0367574691772461,0.000236979912323966
495,-0.0352520942687988,0.00019914217779292
496,-0.0342864990234375,0.000278955850778742
497,-0.0358319282531738,0.000277930214282252
498,-0.034395694732666,0.000302415524124471
499,-0.0348196029663086,0.000306709725952369
500,-0.036649227142334,0.000262508275229432
501,-0.034912109375,0.000309731337037453
502,-0.0348119735717773,0.000247544167830011
503,-0.0348691940307617,0.00026917278079709
504,-0.0356059074401855,0.000333976691140912
505,-0.0358419418334961,0.00031465472066219
506,-0.0364351272583008,0.000326942033562478
507,-0.035942554473877,0.000269449704125147
508,-0.0354175567626953,0.00021924555634745
509,-0.0373353958129883,0.000252304088683657
510,-0.0355892181396484,0.000255235746905858
511,-0.0353078842163086,0.000222506749528438
512,-0.0364117622375488,0.000270399885475067
513,-0.036808967590332,0.000285044941504995
514,-0.0360336303710937,0.000363528840872927
515,-0.0362296104431152,0.000307668991873615
516,-0.0353951454162598,0.000265402610505077
517,-0.0370192527770996,0.000271474077351897
518,-0.036684513092041,0.000213299233382328
519,-0.036015510559082,0.000251451927149612
520,-0.036651611328125,0.000262909865419201
521,-0.0367660522460937,0.000274154412976547
522,-0.0362863540649414,0.000256940462777456
523,-0.0349774360656738,0.000317297061926921
524,-0.0361466407775879,0.000350184222416498
525,-0.0361790657043457,0.000339036249372939
526,-0.035670280456543,0.000221519473499412
527,-0.0358738899230957,0.000226203828265007
528,-0.0355725288391113,0.00028902468643429
529,-0.0364627838134766,0.000243372005288735
530,-0.0366945266723633,0.000253318590273771
531,-0.0357613563537598,0.00023946912104943
532,-0.0356721878051758,0.00017271249876239
533,-0.0355124473571777,0.000195286793805271
534,-0.0358662605285645,0.00021230341125489
535,-0.0360350608825684,0.000268401297198859
536,-0.0367870330810547,0.000338149836441924
537,-0.0354952812194824,0.000264379437212225
538,-0.0353035926818848,0.000249155514416625
539,-0.036412239074707,0.00021040139047567
540,-0.0369210243225098,0.000208338006968031
541,-0.0366230010986328,0.000202034952955099
542,-0.0360240936279297,0.000218672342650856
543,-0.0369668006896973,0.000223762155696631
544,-0.0359787940979004,0.000230536835219023
545,-0.036738395690918,0.000229405757171412
546,-0.0369272232055664,0.00021179730328983
547,-0.0355668067932129,0.000149951450516266
548,-0.0358676910400391,0.000184269029399925
549,-0.0368571281433105,0.000228368660698142
550,-0.0371308326721191,0.000212414764446719
551,-0.0367569923400879,0.000155817075649071
552,-0.036919116973877,0.000180655218242983
553,-0.0366268157958984,0.000211358843585223
554,-0.0372810363769531,0.000204117496281475
555,-0.0355873107910156,0.00017626729135596
556,-0.0363354682922363,0.000143786764205549
557,-0.0371980667114258,0.00018899120595421
558,-0.037261962890625,0.00016742621121958
559,-0.0369091033935547,0.000180559538877768
560,-0.0365257263183594,0.000183527182688175
561,-0.036808967590332,0.000164593799037844
562,-0.0370402336120605,0.000182009436616284
563,-0.0372204780578613,0.000137659840208177
564,-0.0373406410217285,0.000126360947227874
565,-0.0372281074523926,0.000151192724144916
566,-0.0372276306152344,0.000132954650252102
567,-0.0363564491271973,0.000129857388182467
568,-0.0363101959228516,0.000132947809437595
569,-0.0358700752258301,0.000133806997945182
570,-0.0363359451293945,0.000113733409321824
571,-0.0352802276611328,0.000142920752541813
572,-0.0390300750732422,0.00011153709373209
573,-0.035759449005127,0.000122568484872276
574,-0.0359792709350586,0.000131558671986072
575,-0.0370950698852539,0.000107870641114637
576,-0.0354905128479004,0.000136615302126381
577,-0.0355820655822754,0.000094445059625361
578,-0.0366945266723633,0.000110741259513815
579,-0.0395078659057617,0.000124763784091553
580,-0.0357317924499512,0.000129063532661132
581,-0.0340862274169922,0.000128268309239158
582,-0.0384106636047363,0.000104650276881615
583,-0.0407176017761231,0.000116273981362361
584,-0.0347566604614258,0.000121997647711598
585,-0.0348434448242187,0.000102250165497327
586,-0.0393929481506348,0.000098205304427002
587,-0.0350909233093262,0.0000944185737383183
588,-0.0384922027587891,0.0000911495150875511
589,-0.0394587516784668,0.000117034141209735
590,-0.0371217727661133,0.0000883037531798632
591,-0.0379986763000488,0.000119230268539754
592,-0.0344290733337402,0.000103494536584207
593,-0.0353817939758301,0.000116775463223369
594,-0.0372090339660645,0.0000997148475761385
595,-0.0369510650634766,0.0000997353676149565
596,-0.03887939453125,0.000108900671089613
597,-0.0363330841064453,0.000130399052697275
598,-0.0369157791137695,0.00010568157331234
599,-0.0361337661743164,0.000102494480596899
600,-0.0360107421875,0.000115384739857154
601,-0.0368618965148926,0.000125044123863859
602,-0.0369796752929687,0.000127125179865372
603,-0.0358877182006836,0.000117454971728925
604,-0.0385079383850098,0.000109000844201367
605,-0.0356178283691406,0.000136395432932211
606,-0.0368671417236328,0.000151565224168939
607,-0.0367703437805176,0.000136974326802046
608,-0.0374612808227539,0.000114768275313461
609,-0.0364503860473633,0.000121476547268457
610,-0.0353984832763672,0.000148800700652456
611,-0.0376214981079102,0.000125229457966848
612,-0.036778450012207,0.000154244844010029
613,-0.0361332893371582,0.000200053504985081
614,-0.0366206169128418,0.00016773285040398
615,-0.0362768173217773,0.000138929106241367
616,-0.0378532409667969,0.000130151215209543
617,-0.0363411903381348,0.00012896836474897
618,-0.0368995666503906,0.000164969118204442
619,-0.0361409187316895,0.000133728808866905
620,-0.0355129241943359,0.000118407413514444
621,-0.0368876457214355,0.000164662855705999
622,-0.0338563919067383,0.00016957981299482
623,-0.0346813201904297,0.000154230102217982
624,-0.0345630645751953,0.000213154210190107
625,-0.0345749855041504,0.000222915124040667
626,-0.0368590354919434,0.000244010205004353
627,-0.0373473167419434,0.000242454697942505
628,-0.0390653610229492,0.00020450477834595
629,-0.0375127792358398,0.000214247981550538
630,-0.0377030372619629,0.0002027045920464
631,-0.0380020141601562,0.00016037331658177
632,-0.0368590354919434,0.000156945356758702
633,-0.0367598533630371,0.000174436391680507
634,-0.0368800163269043,0.000264186720737539
635,-0.0363788604736328,0.000246350892955361
636,-0.0355815887451172,0.000222743697938049
637,-0.0365958213806152,0.000171231685723629
638,-0.035468578338623,0.000139363766296555
639,-0.0362143516540527,0.000193776671086581
640,-0.0359997749328613,0.000289049859511587
641,-0.0361566543579102,0.000215374206393948
642,-0.0357756614685059,0.000164115130619646
643,-0.0352334976196289,0.000280535907744116
644,-0.0354909896850586,0.000283413009725697
645,-0.0362305641174316,0.000314960959662903
646,-0.0364975929260254,0.000304118949118092
647,-0.0364522933959961,0.000317119296423974
648,-0.0357456207275391,0.000344607809255529
649,-0.0373578071594238,0.000338004565735299
650,-0.0368137359619141,0.000391615416693161
651,-0.0356507301330566,0.000281590813201303
652,-0.035703182220459,0.00022805382045952
653,-0.0353250503540039,0.000268062226726698
654,-0.0386385917663574,0.00026233498640813
655,-0.0150704383850098,0.000183353653239674
656,-0.0244059562683105,0.0000857551560249321
657,-0.0576367378234863,0.000135633142457001
658,-0.0400166511535645,0.000195254190502836
659,-0.036461353302002,0.000163423718956466
660,-0.0360159873962402,0.000254128707121986
661,-0.035886287689209,0.000323192895202257
662,-0.0359296798706055,0.000252275248986623
663,-0.0359382629394531,0.000229770207921991
664,-0.0352849960327148,0.000211091883829443
665,-0.0355038642883301,0.000265382048613859
666,-0.0360946655273437,0.000297961800921303
667,-0.0357847213745117,0.000260176616288927
668,-0.035834789276123,0.000259721780066853
669,-0.0354905128479004,0.000187697061159402
670,-0.0357108116149902,0.000155235213847166
671,-0.0356369018554687,0.000185680168986373
672,-0.0353069305419922,0.000175626317264603
673,-0.0367207527160645,0.000165230783929084
674,-0.0353922843933105,0.00018063004437635
675,-0.0352802276611328,0.000192055895835309
676,-0.0349674224853516,0.000138072149414219
677,-0.0352082252502441,0.000162413284048812
678,-0.0347466468811035,0.000186686467029452
679,-0.0345654487609863,0.000171013776141603
680,-0.0356817245483398,0.000179868133729871
681,-0.0347461700439453,0.00016768946654282
682,-0.0354166030883789,0.000141510615657046
683,-0.0351157188415527,0.000204277839979635
684,-0.0346841812133789,0.000189029700955312
685,-0.0350408554077148,0.000206024556137715
686,-0.0356569290161133,0.000181729391158333
687,-0.0352487564086914,0.000130311839741454
688,-0.0348339080810547,0.000165183989986589
689,-0.0343670845031738,0.000153037244046522
690,-0.0347919464111328,0.000130091803779449
691,-0.0336675643920898,0.000173940365496851
692,-0.0348820686340332,0.000146049235673044
693,-0.0347943305969238,0.000146717144879396
694,-0.0348730087280273,0.000193541852805071
695,-0.0338926315307617,0.000167662345928946
696,-0.0341358184814453,0.000174587529437867
697,-0.033083438873291,0.000185939591247255
698,-0.0344867706298828,0.00017913852477163
699,-0.0346107482910156,0.000167380031047354
700,-0.034052848815918,0.000210837527598513
701,-0.0343093872070312,0.000198176184774959
702,-0.0331330299377441,0.000165741901679538
703,-0.0335817337036133,0.000177075518743624
704,-0.0342645645141602,0.000131025272335782
705,-0.0342445373535156,0.000162838318678958
706,-0.0331153869628906,0.000149425884399342
707,-0.0334362983703613,0.000159677094379571
708,-0.0331940650939941,0.000114855413028143
709,-0.0323987007141113,0.000152334360259714
710,-0.0328173637390137,0.000142519280010442
711,-0.0326108932495117,0.00015814899398591
712,-0.0328912734985352,0.000127017819674052
713,-0.032221794128418,0.000131869400157498
714,-0.0316505432128906,0.000172052996350849
715,-0.0311641693115234,0.000144832958271558
716,-0.0317845344543457,0.0001296506115611
717,-0.0312943458557129,0.000115138155157368
718,-0.0308504104614258,0.000164397519926197
719,-0.0312576293945312,0.000125885009765625
720,-0.0312552452087402,0.000191134986804653
721,-0.0314908027648926,0.00020325571906673
722,-0.0312404632568359,0.000168117391581881
723,-0.0305981636047363,0.000196392085667387
724,-0.0310878753662109,0.000225212567430134
725,-0.0297226905822754,0.000228989099164166
726,-0.0296072959899902,0.000164660093995336
727,-0.0297188758850098,0.000131202157834604
728,-0.0289368629455566,0.000115082847754204
729,-0.0289731025695801,0.000126389734321818
730,-0.0284905433654785,0.000175014178186536
731,-0.0271658897399902,0.000191785778224301
732,-0.0275821685791016,0.000179518899458029
733,-0.0282220840454102,0.000131717580189663
734,-0.0275607109069824,0.000104843468874449
735,-0.0267295837402344,0.000168114686620752
736,-0.0261483192443848,0.000143536697326022
737,-0.0258851051330566,0.000138942198556926
738,-0.0258932113647461,0.000139982367995751
739,-0.0258908271789551,0.000156495601629379
740,-0.026789665222168,0.000127710486988712
741,-0.0259413719177246,0.000185449811681871
742,-0.025639533996582,0.000168357959065657
743,-0.0261187553405762,0.000181969456508912
744,-0.0255889892578125,0.000197422100965867
745,-0.0256314277648926,0.00016724957114363
746,-0.0256795883178711,0.000186423205487265
747,-0.0256562232971191,0.000161230200539706
748,-0.0257887840270996,0.000161210455936212
749,-0.0260329246520996,0.000211913214299487
750,-0.0262298583984375,0.000187590428862984
751,-0.0259575843811035,0.00017849257520442
752,-0.0251007080078125,0.000171690514528795
753,-0.0242953300476074,0.000199393207991902
754,-0.0247635841369629,0.000166808515688022
755,-0.0254359245300293,0.000139631077922883
756,-0.0251445770263672,0.000118635705038307
757,-0.0238790512084961,0.00014221903062786
758,-0.0244288444519043,0.000159933201658261
759,-0.0244789123535156,0.000158952077102666
760,-0.0234813690185547,0.000149872581380605
761,-0.0256800651550293,0.000122382836822802
762,-0.0253658294677734,0.000183467705366956
763,-0.0252985954284668,0.000205538387892268
764,-0.0248494148254395,0.00016920397074865
765,-0.0248956680297852,0.000205090982170339
766,-0.0261955261230469,0.000191134986804653
767,-0.0251665115356445,0.000213452679955105
768,-0.0244846343994141,0.000155647712386419
769,-0.0253238677978516,0.000118878860288525
770,-0.0244688987731934,0.000135619730695625
771,-0.0243496894836426,0.000122935240917162
772,-0.0244269371032715,0.000173028167050805
773,-0.0238704681396484,0.000129790835062566
774,-0.0238833427429199,0.000164991169214493
775,-0.0249619483947754,0.000133864760519832
776,-0.024653434753418,0.000187624363894519
777,-0.0243325233459473,0.000172875666015372
778,-0.0248560905456543,0.000179305989045746
779,-0.0254507064819336,0.000183269308222829
780,-0.0246953964233398,0.000184027021698491
781,-0.024632453918457,0.00021056126833306
782,-0.0244393348693848,0.000177992523555227
783,-0.0247030258178711,0.000145756257974448
784,-0.0248913764953613,0.000126461673387533
785,-0.0247812271118164,0.000147884108675786
786,-0.0252819061279297,0.000185243718106425
787,-0.0251326560974121,0.000170670404035619
788,-0.0244660377502441,0.000130514084563717
789,-0.0248560905456543,0.000192306717416451
790,-0.0252504348754883,0.000179640449254357
791,-0.0260477066040039,0.000117835714501026
792,-0.0256962776184082,0.000147415963871496
793,-0.0253534317016602,0.000189879406381215
794,-0.0262355804443359,0.000169558358737468
795,-0.0258994102478027,0.000201109993257029
796,-0.0258798599243164,0.000204291196273741
797,-0.0252032279968262,0.000169391996110307
798,-0.0258779525756836,0.000200117142465271
799,-0.0252599716186523,0.000165307827429524
800,-0.0256643295288086,0.000172295986795597
801,-0.0263733863830566,0.000228985127348072
802,-0.0252037048339844,0.000159300725575461
803,-0.0256266593933105,0.000221203107924332
804,-0.0255851745605469,0.000193635814288811
805,-0.0249581336975098,0.000135693478978884
806,-0.0257692337036133,0.000130186150444425
807,-0.0258622169494629,0.000119354160019119
808,-0.0256123542785645,0.0001920464244559
809,-0.0261602401733398,0.000212286274810334
810,-0.0257201194763184,0.000166884830819612
811,-0.0258297920227051,0.000224524992661997
812,-0.0260887145996094,0.000196151125063819
813,-0.0253334045410156,0.000202331845037313
814,-0.0253181457519531,0.000187585580500194
815,-0.025423526763916,0.000179863077206143
816,-0.0254287719726562,0.000172901968893579
817,-0.0256600379943848,0.000115609166547917
818,-0.025780200958252,0.000168152552116876
819,-0.0252828598022461,0.000185278082955641
820,-0.0261745452880859,0.000206760462763399
821,-0.0262250900268555,0.000229203475025594
822,-0.0254268646240234,0.000218306029172127
823,-0.0250325202941895,0.000185047225112269
824,-0.0243959426879883,0.000174842603263597
825,-0.0236873626708984,0.000198991407668245
826,-0.0236916542053223,0.000205600327696729
827,-0.0245895385742187,0.000273795893502682
828,-0.0243344306945801,0.000154403965679557
829,-0.0233216285705566,0.000197730519242262
830,-0.023186206817627,0.000229167759641656
831,-0.0230154991149902,0.00020334519202923
832,-0.0217680931091309,0.000188610645948595
833,-0.0209822654724121,0.000158502278050107
834,-0.0214123725891113,0.000199210671945958
835,-0.0214862823486328,0.000209461271870306
836,-0.0215544700622559,0.000187929503429468
837,-0.0216875076293945,0.00021041868042479
838,-0.021143913269043,0.000212564570858079
839,-0.0214653015136719,0.000212684340014441
840,-0.0214190483093262,0.000149884717795021
841,-0.0211329460144043,0.000152038538996732
842,-0.0212621688842773,0.000198304644210008
843,-0.0204629898071289,0.000190343455206178
844,-0.0205016136169434,0.000187561336806328
845,-0.0204949378967285,0.000216276010024648
846,-0.020571231842041,0.00023394779794495
847,-0.0205602645874023,0.000237478309467487
848,-0.0201387405395508,0.000280678519070432
849,-0.0194363594055176,0.000336018318335323
850,-0.0194697380065918,0.000270197999068677
851,-0.0197000503540039,0.000209938355828362
852,-0.0198812484741211,0.000151948782486756
853,-0.0193133354187012,0.000143698182692241
854,-0.0187740325927734,0.00018538113928119
855,-0.0180497169494629,0.000203890126854237
856,-0.0176258087158203,0.000182623028980502
857,-0.0181660652160645,0.000190094827627797
858,-0.0178031921386719,0.000181173021686412
859,-0.0174880027770996,0.000155282077309018
860,-0.0176963806152344,0.000179255258817245
861,-0.0177197456359863,0.000163189810841894
862,-0.0178756713867187,0.000227510796375251
863,-0.0176115036010742,0.000259630717205423
864,-0.0168771743774414,0.000335357237647308
865,-0.0166964530944824,0.00030051486803026
866,-0.0167760848999023,0.000327880941392401
867,-0.0163588523864746,0.000233831140956856
868,-0.0160613059997559,0.000219303624752881
869,-0.0160202980041504,0.00030173507854785
870,-0.0154047012329102,0.000236388143689418
871,-0.0151433944702148,0.000175232303304093
872,-0.0147123336791992,0.000265231212704562
873,-0.0142269134521484,0.000298266883425936
874,-0.0137138366699219,0.000251704987883638
875,-0.0138139724731445,0.000276828509318291
876,-0.0133724212646484,0.000195454382026267
877,-0.0138921737670898,0.000244114546575098
878,-0.0129837989807129,0.000318447262898712
879,-0.0124244689941406,0.000220234766659468
880,-0.0120706558227539,0.00023979173054025
881,-0.012061595916748,0.000267294342986293
882,-0.0122551918029785,0.000360796559954991
883,-0.0115270614624023,0.000299003894931619
884,-0.0113458633422852,0.000230694585911644
885,-0.0113515853881836,0.000204366865452344
886,-0.0108828544616699,0.000256650042433666
887,-0.0101447105407715,0.000317279863166629
888,-0.00941038131713867,0.000206756063932188
889,-0.00927829742431641,0.000199912521331972
890,-0.00864410400390625,0.000195426460636345
891,-0.00732803344726563,0.000286857878813895
892,-0.00687885284423828,0.000225345794677402
893,-0.00636434555053711,0.000349851624243469
894,-0.00584650039672852,0.000294510934803244
895,-0.0049896240234375,0.000277360234811628
896,-0.00351190567016602,0.000304996914898061
897,-0.00308322906494141,0.00025290896264523
898,-0.00207281112670898,0.000267498420848959
899,-0.00128555297851562,0.000249971846395964
900,-0.000669956207275391,0.000320678572623837
901,0.000661849975585938,0.000368597282314516
902,0.00136518478393555,0.000331571590384809
903,0.00189304351806641,0.000267192245602989
904,0.0020136833190918,0.000308359939163563
905,0.00343608856201172,0.000356842450117449
906,0.00304746627807617,0.000343047137361329
907,0.00315618515014648,0.000284725692091936
908,0.00280284881591797,0.000271098594354281
909,0.0029292106628418,0.000430528768169239
910,0.00166845321655273,0.000415994442145251
911,0.00153684616088867,0.000410625184019547
912,0.00125741958618164,0.000280736839187227
913,0.000959873199462891,0.000289672196086491
914,0.000734329223632813,0.000417086166873839
915,0.00128555297851562,0.000382621932401927
916,0.0014348030090332,0.000345066727396473
917,0.00111055374145508,0.000300496708752065
918,0.00143957138061523,0.000348674598695389
919,0.00142335891723633,0.000256018484034593
920,0.00198650360107422,0.000283605489097074
921,0.00313234329223633,0.000289263742219984
922,0.00351572036743164,0.00034272884285303
923,0.00368595123291016,0.000430942620477968
924,0.00407552719116211,0.000304871646012525
925,0.00524711608886719,0.000317331456651084
926,0.00594568252563477,0.000365425300291466
927,0.00725698471069336,0.000363868933415998
928,0.00770330429077148,0.00030159639273989
929,0.00853395462036133,0.000384887642078535
930,0.00932073593139648,0.000360786476628132
931,0.0115385055541992,0.000289062445228159
932,0.0128016471862793,0.000319433920523961
933,0.013606071472168,0.000384480988928406
934,0.0150060653686523,0.000477401399565064
935,0.0167093276977539,0.000378126755303454
936,0.0185136795043945,0.000533089441364933
937,0.019956111907959,0.000372436378401456
938,0.0211071968078613,0.000219477737788372
939,0.0230536460876465,0.000329535532821102
940,0.0258641242980957,0.000405103966887399
941,0.0269556045532227,0.000527863687700498
942,0.0290737152099609,0.000533975867417826
943,0.0300989151000977,0.000458740146569959
944,0.0336065292358398,0.000614734647279181
945,0.036250114440918,0.00047861910693677
946,0.0392308235168457,0.000579896722712182
947,0.0420808792114258,0.000453596218473963
948,0.0453710556030273,0.000469595276137517
949,0.0498356819152832,0.000658021456808253
950,0.0533981323242188,0.000427348260925447
951,0.0584173202514648,0.000470454412951824
952,0.0628619194030762,0.000593954611802365
953,0.0674319267272949,0.000752221158795614
954,0.0696787834167481,0.000581325319720691
955,0.0749588012695313,0.000523225745917826
956,0.078671932220459,0.000506565369066048
957,0.0827465057373047,0.000440931812652019
958,0.0858244895935059,0.00037263168827822
959,0.0882487297058106,0.000713378987191553
960,0.0895223617553711,0.00064168605509382
961,0.0928869247436523,0.000693394028778184
962,0.0952105522155762,0.000652034320654953
963,0.0973410606384277,0.000561149617861966
964,0.0985321998596191,0.000736305747463671
965,0.100105285644531,0.000496277306795413
966,0.10164213180542,0.000596484976620174
967,0.102468013763428,0.000507541134660581
968,0.105964183807373,0.000584856665652356
969,0.106215953826904,0.000675998368279395
970,0.107051372528076,0.000913570219527625
971,0.107701778411865,0.00100679104443133
972,0.11000394821167,0.000688497377310945
973,0.110049724578857,0.000501121144131763
974,0.110885620117187,0.00058799570909214
975,0.111924171447754,0.000870720841256205
976,0.115428924560547,0.000719957790731115
977,0.114675521850586,0.000750575010342733
978,0.113970756530762,0.000979032967913782
979,0.114602088928223,0.00110286322018998
980,0.115257740020752,0.00094271658881491
981,0.115701675415039,0.00108664649693017
982,0.116068363189697,0.00126845424157518
983,0.116321086883545,0.000859128770449007
984,0.116731643676758,0.000955046620073614
985,0.115915298461914,0.0012463031057796
986,0.115321636199951,0.00133577604322036
987,0.114991664886475,0.000833352027872123
988,0.115566730499268,0.00090922731158029
989,0.11573600769043,0.00122605580749422
990,0.112447738647461,0.00165970459572447
991,0.113086223602295,0.0013072561787035
992,0.114282608032227,0.00196672709927477
993,0.113469123840332,0.00140745270478518
994,0.110483646392822,0.001568392728306
995,0.109772205352783,0.00132556201665363
996,0.110327243804932,0.00138636826397703
997,0.112733364105225,0.00121129703567943
998,0.107279777526855,0.00170458499860772
999,0.105240821838379,0.001873602843286
1000,0.105666637420654,0.00136740801940142
1001,0.105509281158447,0.00150707097671062
1002,0.103642463684082,0.00218013870190639
1003,0.102085113525391,0.00215543560875043
1004,0.0994458198547363,0.00179992277365496
1005,0.0969338417053223,0.00135676721525412
1006,0.0983705520629883,0.00172228406488311
1007,0.0988407135009766,0.00133187028885621
1008,0.097902774810791,0.00187605554949573
1009,0.0949411392211914,0.00232319761332099
1010,0.0913863182067871,0.00193275317792591
1011,0.0869650840759277,0.00200262523626811
1012,0.0879359245300293,0.00224356093858692
1013,0.0864744186401367,0.00223992578897097
1014,0.0808615684509277,0.0020152580274631
1015,0.079653263092041,0.00258680356784434
1016,0.0789241790771484,0.00231617159563552
1017,0.0775508880615234,0.00213650292975089
1018,0.0739779472351074,0.00202631892870693
1019,0.0727434158325195,0.00230200465889235
1020,0.0705509185791016,0.00238232654556564
1021,0.0667300224304199,0.00223242915395116
1022,0.0667200088500977,0.00260232820783937
1023,0.0626978874206543,0.00297628538088254
1024,0.0615100860595703,0.00325717072145938
1025,0.0627937316894531,0.00302786053584289
1026,0.053736686706543,0.00284264319228622
1027,0.0530638694763184,0.00314219927356398
1028,0.0509309768676758,0.00275871985694706
1029,0.0511589050292969,0.00295351195953832
1030,0.0458035469055176,0.00296413514687209
1031,0.0424513816833496,0.00288685643199426
1032,0.0408296585083008,0.00327086656345001
1033,0.0464358329772949,0.00333620084665621
1034,0.0391473770141602,0.00379756896815854
1035,0.0357646942138672,0.00373101574946791
1036,0.034761905670166,0.0040280891120916
1037,0.0351924896240234,0.00315048731769618
1038,0.0247931480407715,0.00340725718927545
1039,0.0275473594665527,0.00313374071806091
1040,0.027430534362793,0.00310380423219998
1041,0.0202865600585937,0.00313084175547534
1042,0.0234909057617187,0.00435685858340762
1043,0.0184087753295898,0.00398508626535777
1044,0.0204591751098633,0.00368644259534705
1045,0.016486644744873,0.00463153893010933
1046,0.0177412033081055,0.00575772162977793
1047,0.00887727737426758,0.00470218345494368
1048,0.0115785598754883,0.00448193000970355
1049,0.00808382034301758,0.00452412159676598
1050,0.00440073013305664,0.00467855474171112
1051,0.0087742805480957,0.00570882668996827
1052,0.00673484802246094,0.00529618478739828
1053,0.00412368774414063,0.00536102738778993
1054,-0.00602579116821289,0.0052793646104922
1055,-0.00608968734741211,0.00549892547254601
1056,-0.00597286224365234,0.00720434640222974
1057,-0.00439691543579102,0.00559629480452641
1058,-0.00992965698242188,0.00416081186062614
1059,-0.0106916427612305,0.00589645099662034
1060,-0.0170960426330566,0.00830302488634932
1061,-0.010584831237793,0.00754259708541833
1062,-0.0116767883300781,0.00788440988346204
1063,-0.0198798179626465,0.00775566888179964
1064,-0.0264606475830078,0.00630156583211306
1065,-0.0167675018310547,0.00731072772793742
1066,-0.0206480026245117,0.0109588278863123
1067,-0.0208001136779785,0.0104740667364403
1068,-0.02655029296875,0.0086770871968774
1069,-0.015861988067627,0.00848761826378028
1070,-0.0210638046264648,0.00969268260271175
1071,-0.018822193145752,0.00972491361437482
1072,-0.0301218032836914,0.0108039122970203
1073,-0.0310263633728027,0.0126350144618155
1074,-0.0216765403747559,0.0116830919082084
1075,-0.0201334953308105,0.0111214697090597
1076,-0.0499873161315918,0.0107712785246366
1077,-0.0433907508850098,0.0132259113581854
1078,-0.0470290184020996,0.00985750841465938
1079,-0.0326495170593262,0.00961318243007718
1080,-0.0340447425842285,0.0126594624151198
1081,-0.0443968772888184,0.0113292167400578
1082,-0.0337772369384766,0.013362657467206
1083,-0.0604457855224609,0.0139534430216636
1084,-0.0567626953125,0.0120769435605778
1085,-0.0270199775695801,0.0143993821892397
1086,-0.0397319793701172,0.0135280675339178
1087,-0.0487112998962402,0.015054293759497
1088,-0.047731876373291,0.0144071414531024
1089,-0.0578947067260742,0.0157716544410819
1090,-0.0601711273193359,0.0138688207389881
1091,-0.0351834297180176,0.0169493211267056
1092,-0.0447559356689453,0.0156359634083563
1093,-0.0659255981445313,0.0116878738547521
1094,-0.0693001747131348,0.0181207612441538
1095,-0.0483450889587402,0.0153303983754293
1096,-0.0562863349914551,0.0164265098818402
1097,-0.0753984451293945,0.0239457028032016
1098,-0.0556778907775879,0.0166342917555439
1099,-0.0481724739074707,0.0144662333662359
1100,-0.044334888458252,0.0252115832879406
