Wavelength (nm),Absorbance (AU),Std.Dev.
190,2.43457651138306,0.079658712535341
191,2.72698354721069,0.130461586395775
192,2.91731071472168,0.0751461512389058
193,2.57629537582397,0.0449735924272023
194,2.50520372390747,0.0287697740636499
195,2.17215156555176,0.0137601455192024
196,1.87685918807983,0.0052793646104922
197,1.57877016067505,0.00162593835780077
198,1.31935977935791,0.000622649279702586
199,1.1079363822937,0.000880096212794664
200,0.931297779083252,0.000551180854368704
201,0.793022632598877,0.000305866413656633
202,0.685830593109131,0.000284961971064727
203,0.604093074798584,0.000214663593932523
204,0.547883033752441,0.000182398783413853
205,0.508822917938232,0.000164850543490081
206,0.482457160949707,0.000232610530281574
207,0.465579986572266,0.00020289743266254
208,0.454432487487793,0.000161928170038797
209,0.446686267852783,0.000160004269818671
210,0.438209056854248,0.000200897329215387
211,0.431169509887695,0.000203354137160303
212,0.424808979034424,0.000235845027446051
213,0.417211532592773,0.000169558358737468
214,0.408614158630371,0.000140439674247157
215,0.399300098419189,0.000218176840433148
216,0.391708850860596,0.000303849676923267
217,0.38285493850708,0.000235165335107036
218,0.369807720184326,0.000163329082216554
219,0.353015422821045,0.000157148050058664
220,0.339425563812256,0.000165772079718115
221,0.327490329742432,0.000122196906727249
222,0.315640449523926,0.0001184803611343
223,0.303266525268555,0.000121796195889968
224,0.290533542633057,0.000114236092056709
225,0.27915096282959,0.000076880288066232
226,0.269142150878906,0.0000733709693257079
227,0.259625434875488,0.0000813507111059929
228,0.250338554382324,0.0000694416367088224
229,0.240259647369385,0.0000777493185522148
230,0.229504585266113,0.0000830011746438235
231,0.219006538391113,0.000108165335683882
232,0.20880126953125,0.00010214559813687
233,0.200196266174316,0.0000959379298397773
234,0.192236423492432,0.0000832377957307026
235,0.184894561767578,0.000089261572554385
236,0.177256107330322,0.0000870485790109244
237,0.169285297393799,0.000124865798649964
238,0.162702560424805,0.0000823272852175225
239,0.157944202423096,0.000109433868092081
240,0.156256198883057,0.0000919937400043998
241,0.158055782318115,0.0000871190753296607
242,0.16285228729248,0.0000957338921686871
243,0.171510219573975,0.0000700447654626244
244,0.18301248550415,0.0000980454193238469
245,0.197718143463135,0.000140436436183584
246,0.21452522277832,0.000192363461801698
247,0.23358678817749,0.000161185066463508
248,0.254868507385254,0.000123514631228608
249,0.277958393096924,0.000146769826638488
250,0.302742481231689,0.000178630098575244
251,0.330176830291748,0.000174253809465937
252,0.359259605407715,0.000182807202598652
253,0.389613151550293,0.000206271619808303
254,0.421798229217529,0.000139559410426052
255,0.455112934112549,0.00016347379858006
256,0.490456581115723,0.000202435205121255
257,0.527721881866455,0.000235118920895708
258,0.564125061035156,0.000337600708007812
259,0.601991653442383,0.000260721372370024
260,0.640126705169678,0.0002460923265802
261,0.678416728973389,0.00025472924842524
262,0.71610164642334,0.000308171116036414
263,0.75324821472168,0.000484143547453562
264,0.789449214935303,0.000240722964066082
265,0.823780059814453,0.000235875876015876
266,0.856208801269531,0.000340839518317433
267,0.887304306030273,0.000356148521108904
268,0.913743019104004,0.000463756435122628
269,0.939036369323731,0.000486706638587322
270,0.958922863006592,0.000557050303230951
271,0.977670192718506,0.000415863242582854
272,0.992109298706055,0.000616330426898825
273,0.999415874481201,0.000560695618489781
274,1.00322914123535,0.000966120565239094
275,1.00122690200806,0.000906887614248225
276,0.995279312133789,0.000787825036616826
277,0.983462810516357,0.000453162915189133
278,0.964146137237549,0.00062163181135563
279,0.941004276275635,0.000576726214398809
280,0.91342306137085,0.000607244211077237
281,0.881171226501465,0.000658209404505085
282,0.843130588531494,0.000604746834236704
283,0.803048133850098,0.00052778097853314
284,0.755302906036377,0.000643192349167216
285,0.706961154937744,0.000620014471272862
286,0.656648635864258,0.000671430066183222
287,0.602768421173096,0.000953689575073244
288,0.547905445098877,0.000523448194031577
289,0.491637229919434,0.000261828326658588
290,0.437212944030762,0.000350817364228045
291,0.385337352752686,0.00037697046059687
292,0.335596561431885,0.000225551536546241
293,0.290825366973877,0.000212568849489954
294,0.248334407806396,0.000276236502799229
295,0.210869312286377,0.000212089106180128
296,0.177232265472412,0.000205728572254087
297,0.146689891815186,0.000185091454222994
298,0.121077537536621,0.000178502765754239
299,0.0980844497680664,0.000184115959450778
300,0.0786814689636231,0.000157283997559267
301,0.0625114440917969,0.000154906772645927
302,0.0489397048950195,0.00015065639640402
303,0.0378155708312988,0.000179351633982813
304,0.0277094841003418,0.000126155649046424
305,0.0200510025024414,0.0000915030503563765
306,0.0135688781738281,0.000123060945385695
307,0.00802946090698242,0.000149984805742621
308,0.00355911254882812,0.000126641342266512
309,-0.000361442565917969,0.0000992600428385266
310,-0.00339412689208984,0.000107887502488889
311,-0.00598621368408203,0.00012340044486056
312,-0.00838518142700195,0.000107397447864855
313,-0.0102925300598145,0.0000828366473923305
314,-0.0117568969726562,0.0000977690611371178
315,-0.013275146484375,0.0000925408132225662
316,-0.0143303871154785,0.0000875226777794332
317,-0.0153646469116211,0.000085008176976905
318,-0.0163350105285645,0.000102822279496029
319,-0.01690673828125,0.0000864693931011155
320,-0.0174198150634766,0.000128682438720984
321,-0.0180721282958984,0.000101035481553261
322,-0.0186114311218262,0.0000898936061422194
323,-0.0190787315368652,0.0000676806476437641
324,-0.0195260047912598,0.0000692383316743342
325,-0.0200772285461426,0.000103479156699905
326,-0.0204706192016602,0.0000927052867122652
327,-0.0207099914550781,0.000116219214487234
328,-0.0208663940429687,0.000149498905686189
329,-0.0211777687072754,0.000137778711764207
330,-0.0217494964599609,0.000108664482298118
331,-0.0216326713562012,0.0000974592628638529
332,-0.0216579437255859,0.000116344358034614
333,-0.0220112800598145,0.000140947127572101
334,-0.0223379135131836,0.000141346631066488
335,-0.0226950645446777,0.000106363549185581
336,-0.0225710868835449,0.000118599284611119
337,-0.0225944519042969,0.000106966808383042
338,-0.0227489471435547,0.000159987216339292
339,-0.0228009223937988,0.000141793123519416
340,-0.0231156349182129,0.000124956812699579
341,-0.023106575012207,0.000158651397319928
342,-0.0230517387390137,0.000174894613439143
343,-0.0231413841247559,0.000142410752244465
344,-0.0233945846557617,0.000141959795723594
345,-0.0229511260986328,0.000164317282145041
346,-0.0230679512023926,0.000213141409288664
347,-0.023402214050293,0.000273030810964837
348,-0.0235061645507812,0.000239981298241478
349,-0.0237636566162109,0.000180861511781709
350,-0.0236310958862305,0.000204331259917782
351,-0.0241122245788574,0.000224350742779063
352,-0.024289608001709,0.000178258031770079
353,-0.0243163108825684,0.000167949601609488
354,-0.0246033668518066,0.000157572857302268
355,-0.0241670608520508,0.000199196974999495
356,-0.0247774124145508,0.000177424436360284
357,-0.0248994827270508,0.000170569123861894
358,-0.0253019332885742,0.000229163790922066
359,-0.0260519981384277,0.00025131444461057
360,-0.0256285667419434,0.000309807673997112
361,-0.0258760452270508,0.000206751665007389
362,-0.0257143974304199,0.000186330487965549
363,-0.0259232521057129,0.00029108164905601
364,-0.0261039733886719,0.000384736379489837
365,-0.0263385772705078,0.000224099260245315
366,-0.0270266532897949,0.000228838121690163
367,-0.0267496109008789,0.000206773658695554
368,-0.0276012420654297,0.000261432032943234
369,-0.0275321006774902,0.000199803304376131
370,-0.0280346870422363,0.000184520577864831
371,-0.0285539627075195,0.000267654775166164
372,-0.0285534858703613,0.000255214365900844
373,-0.0285758972167969,0.000191125469788848
374,-0.0286941528320312,0.000147631741279734
375,-0.0288076400756836,0.000172959821145592
376,-0.0288052558898926,0.000223611716406078
377,-0.0293698310852051,0.000222870239472718
378,-0.0293707847595215,0.000218888512465588
379,-0.0295171737670898,0.000199251757136021
380,-0.0296025276184082,0.000228659203653652
381,-0.0301213264465332,0.000252405001673481
382,-0.0304484367370605,0.000210007659570723
383,-0.0306601524353027,0.000175356824409382
384,-0.0305953025817871,0.000168009159167661
385,-0.0310187339782715,0.000175014178186536
386,-0.0311770439147949,0.000149568850966733
387,-0.0316753387451172,0.00015276362313323
388,-0.0312094688415527,0.000185282991699511
389,-0.0311846733093262,0.000256423144352018
390,-0.0311484336853027,0.000211242628386855
391,-0.0320229530334473,0.000135381450834773
392,-0.0317511558532715,0.000140005106380482
393,-0.0314197540283203,0.000111079520486913
394,-0.0317044258117676,0.000148592741663048
395,-0.032158374786377,0.000168379566273249
396,-0.0324954986572266,0.000139803580573247
397,-0.0325098037719727,0.000154959604788502
398,-0.032137393951416,0.000173311776924572
399,-0.0325841903686523,0.000160140632276419
400,-0.032710075378418,0.000145584561441508
401,-0.0329461097717285,0.00019632260815233
402,-0.0328702926635742,0.000177532051740634
403,-0.0326485633850098,0.000164261922908194
404,-0.0325284004211426,0.000140452625754931
405,-0.032991886138916,0.000189077808685446
406,-0.0324435234069824,0.000150804227453451
407,-0.0327973365783691,0.000206051041414898
408,-0.0332379341125488,0.000160650960632703
409,-0.0332350730895996,0.000146232826096212
410,-0.0332188606262207,0.000213414328655282
411,-0.0327377319335937,0.000187158432735697
412,-0.0327310562133789,0.000139829600223681
413,-0.0329399108886719,0.000191961161011888
414,-0.032860279083252,0.000257244697712117
415,-0.0331225395202637,0.000219647572147399
416,-0.0334434509277344,0.000187590428862984
417,-0.033388614654541,0.000171849359793014
418,-0.0330262184143066,0.000194184578006354
419,-0.0330667495727539,0.000134583011505197
420,-0.0331215858459473,0.000128410042220783
421,-0.0320291519165039,0.000140066806245962
422,-0.0312905311584473,0.000150426820015948
423,-0.031644344329834,0.000177695911759817
424,-0.0328922271728516,0.000159551736758408
425,-0.0328288078308105,0.000191467784337374
426,-0.032475471496582,0.00021498958287345
427,-0.0323057174682617,0.000263773282736575
428,-0.032468318939209,0.000228515968363251
429,-0.0322251319885254,0.000155126787867892
430,-0.0309662818908691,0.000157740153578928
431,-0.0305662155151367,0.00023413821269512
432,-0.0318775177001953,0.000237849510068194
433,-0.0325412750244141,0.000255050385315543
434,-0.0317902565002441,0.000302601927578954
435,-0.0328893661499023,0.000221601572484329
436,-0.0329179763793945,0.000246852476225753
437,-0.0326242446899414,0.000223554767031308
438,-0.0329594612121582,0.000228141541138525
439,-0.0324606895446777,0.000194301634245814
440,-0.0328249931335449,0.000165365586499146
441,-0.032841682434082,0.000235493840546427
442,-0.0325298309326172,0.000182004439583142
443,-0.0330524444580078,0.000204731465158405
444,-0.0333590507507324,0.000227682627821389
445,-0.0322995185852051,0.000196845401963911
446,-0.0323290824890137,0.000235285196107861
447,-0.0321860313415527,0.00019978509574542
448,-0.0317482948303223,0.000246336125045211
449,-0.0329089164733887,0.000311032365579827
450,-0.0328121185302734,0.00029654824515385
451,-0.0327301025390625,0.000245914866793949
452,-0.0330586433410645,0.000251328919998343
453,-0.0323143005371094,0.000332617758850104
454,-0.0331778526306152,0.000362687245029133
455,-0.0331625938415527,0.000251437458843426
456,-0.032707691192627,0.000225978557644628
457,-0.0338563919067383,0.000288533372457133
458,-0.033806324005127,0.000210595820559799
459,-0.0328192710876465,0.000256813001605771
460,-0.031130313873291,0.000285038560020884
461,-0.0308575630187988,0.000270823357060974
462,-0.0321836471557617,0.000248006668643203
463,-0.0328083038330078,0.000337174788087152
464,-0.0329523086547852,0.000314400257899845
465,-0.0329675674438477,0.000237309738387997
466,-0.0322442054748535,0.000244326818514808
467,-0.0313138961791992,0.00028697833408629
468,-0.0319252014160156,0.000291468833845414
469,-0.0310373306274414,0.000335009919552809
470,-0.0323810577392578,0.000301849597024101
471,-0.0330867767333984,0.000362647120319968
472,-0.0330100059509277,0.000309878122191912
473,-0.0321974754333496,0.000260134664723318
474,-0.0325522422790527,0.000274764146505266
475,-0.0337557792663574,0.000353194412887824
476,-0.0331287384033203,0.000271581262856953
477,-0.0321307182312012,0.000194871859892153
478,-0.0320701599121094,0.0002727641922684
479,-0.0319681167602539,0.000287813789519332
480,-0.034428596496582,0.000308100277528996
481,-0.0329041481018066,0.000280600740059405
482,-0.0326900482177734,0.000292720540521896
483,-0.0330181121826172,0.000385397715011312
484,-0.0324373245239258,0.000241247559481652
485,-0.033022403717041,0.00014033601915471
486,-0.035707950592041,0.000132505830881989
487,-0.0313820838928223,0.000201724098577052
488,-0.0319647789001465,0.000231151454115599
489,-0.0333905220031738,0.000287402694515931
490,-0.0351791381835937,0.000258289092616099
491,-0.0337414741516113,0.000241646845277626
492,-0.033423900604248,0.000281215901592637
493,-0.0342044830322266,0.000288098050121478
494,-0.0335140228271484,0.000222040286420521
495,-0.0328373908996582,0.000228857992837697
496,-0.0325179100036621,0.000261111778408608
497,-0.0319709777832031,0.000263248662477685
498,-0.0331110954284668,0.000228504028036234
499,-0.0330233573913574,0.000275379135436632
500,-0.0329179763793945,0.000273510069668791
501,-0.0334315299987793,0.000262355787110129
502,-0.0314669609069824,0.000216759074305067
503,-0.03265380859375,0.000238128485625174
504,-0.032412052154541,0.000173919449146908
505,-0.0334224700927734,0.000188914192419653
506,-0.0336966514587402,0.000256316716733945
507,-0.0329985618591309,0.000300411950939912
508,-0.032954216003418,0.000307112745669501
509,-0.0338139533996582,0.000242240785497383
510,-0.0336551666259766,0.000186574382527873
511,-0.0331950187683105,0.00028082753529548
512,-0.0336246490478516,0.000226384686860451
513,-0.0338139533996582,0.000228380608102514
514,-0.0330514907836914,0.000265238070743134
515,-0.0343499183654785,0.000226296285161791
516,-0.0329475402832031,0.000181929467615668
517,-0.0342273712158203,0.000218772139876399
518,-0.0334930419921875,0.00017261241678999
519,-0.0330033302307129,0.000193358496582078
520,-0.0336880683898926,0.000193851752862474
521,-0.0335249900817871,0.000217295483011597
522,-0.0337624549865723,0.000202295881324793
523,-0.0335526466369629,0.000236680370270959
524,-0.0330071449279785,0.000199251757136021
525,-0.0335502624511719,0.000193071359468113
526,-0.0339446067810059,0.000190453321567538
527,-0.0331149101257324,0.00021774705002095
528,-0.0334625244140625,0.000285835141383395
529,-0.0338821411132812,0.000268848215428889
530,-0.033421516418457,0.000225660382770805
531,-0.0332036018371582,0.000201633906272366
532,-0.0333023071289062,0.000171109477935835
533,-0.0340280532836914,0.00023020915766387
534,-0.0331568717956543,0.000209122316456301
535,-0.033693790435791,0.000223090495248942
536,-0.0331120491027832,0.000272630785143004
537,-0.0331630706787109,0.000183264345542363
538,-0.0330166816711426,0.000237753895245885
539,-0.0334153175354004,0.000181273394559312
540,-0.0337738990783691,0.000160063942688362
541,-0.0338740348815918,0.000166906628733867
542,-0.0335655212402344,0.000217316409606502
543,-0.0334587097167969,0.000193908045115968
544,-0.0338869094848633,0.000208207001480029
545,-0.0335946083068848,0.000180473888027859
546,-0.0332889556884766,0.000204237765856645
547,-0.0337600708007812,0.000130809912923891
548,-0.0328512191772461,0.000099294397196264
549,-0.0333585739135742,0.000126781307235858
550,-0.0338916778564453,0.000187173010640672
551,-0.0337305068969727,0.000213695411686865
552,-0.0344362258911133,0.000166106413987195
553,-0.0339250564575195,0.000216746486304574
554,-0.0331888198852539,0.000208639007417731
555,-0.0334377288818359,0.000149066342793121
556,-0.033205509185791,0.000178742076422647
557,-0.0337033271789551,0.000145209246144671
558,-0.0337610244750977,0.000180332727358605
559,-0.0337996482849121,0.000205277150512529
560,-0.0340700149536133,0.000159967318315596
561,-0.0333890914916992,0.00015476286043877
562,-0.0335373878479004,0.000164272996248028
563,-0.0333342552185059,0.0001948158461342
564,-0.0337786674499512,0.000156044550211043
565,-0.032813549041748,0.000179204514227745
566,-0.0330929756164551,0.000149044986801985
567,-0.0337443351745605,0.000171600436943797
568,-0.0334863662719727,0.0000950234886709682
569,-0.0333461761474609,0.0000795932493695246
570,-0.0330557823181152,0.000107234305433784
571,-0.031773567199707,0.00012856223090519
572,-0.032712459564209,0.000158074214964078
573,-0.031618595123291,0.000111465721730584
574,-0.0324335098266602,0.000113413089279076
575,-0.0316615104675293,0.0000947167130884944
576,-0.0312557220458984,0.000130757756552448
577,-0.0328373908996582,0.0000853058877367831
578,-0.0316948890686035,0.000116537674741794
579,-0.0327777862548828,0.0000873900853117062
580,-0.0320611000061035,0.0000775443371289723
581,-0.0324220657348633,0.0000592392210177585
582,-0.0320186614990234,0.0000607279781390053
583,-0.0307841300964355,0.000103296620666893
584,-0.0323286056518555,0.000069992808281279
585,-0.0319118499755859,0.000072293923006973
586,-0.0318636894226074,0.000143511349800801
587,-0.0315442085266113,0.000118219077710806
588,-0.032832145690918,0.0000871425614292641
589,-0.0323805809020996,0.0000897619828379831
590,-0.032529354095459,0.000108230480972249
591,-0.0327572822570801,0.000145843589472981
592,-0.032707691192627,0.000104654622191762
593,-0.031989574432373,0.000087369268235348
594,-0.0323562622070312,0.000111502433037293
595,-0.0326070785522461,0.000142305337319709
596,-0.032844066619873,0.000131046094786821
597,-0.0322175025939941,0.00011266684318221
598,-0.0330386161804199,0.000122330804881566
599,-0.0327296257019043,0.000157985009101353
600,-0.0314731597900391,0.000116954459373356
601,-0.0321183204650879,0.000109767872390275
602,-0.0322299003601074,0.000082180778054788
603,-0.032402515411377,0.000105336771175263
604,-0.0330033302307129,0.000168009159167661
605,-0.0321564674377441,0.000105804137616504
606,-0.0325846672058105,0.0000964532078493778
607,-0.0323801040649414,0.0000862732708643541
608,-0.0327615737915039,0.000142621348349928
609,-0.0322012901306152,0.000124971368796396
610,-0.0326623916625977,0.000124712745519529
611,-0.0328254699707031,0.000130886371340162
612,-0.03228759765625,0.000121440978819338
613,-0.0326385498046875,0.000110862331981645
614,-0.0326318740844727,0.00010576974793937
615,-0.0322122573852539,0.000180060176410003
616,-0.0330615043640137,0.000120085358158106
617,-0.0323591232299805,0.00015271896454686
618,-0.0325336456298828,0.000103845455745168
619,-0.0326261520385742,0.000116412739009816
620,-0.0320849418640137,0.000117602003309935
621,-0.0324869155883789,0.000130935003449878
622,-0.032649040222168,0.000149638763552929
623,-0.0337543487548828,0.000165250048171649
624,-0.0342059135437012,0.000163857233868507
625,-0.0349364280700684,0.000138292641123384
626,-0.0344228744506836,0.000150317950926849
627,-0.0324554443359375,0.000200571108709156
628,-0.0319309234619141,0.000165719950563399
629,-0.0306606292724609,0.000169783493227972
630,-0.0305562019348145,0.000174977797564388
631,-0.0311799049377441,0.000152352270360329
632,-0.0320639610290527,0.000164665617370343
633,-0.0325980186462402,0.00018029741992266
634,-0.032893180847168,0.000178568990152711
635,-0.0325703620910645,0.000143003455795181
636,-0.0320615768432617,0.000204846934442279
637,-0.032651424407959,0.00019417052651547
638,-0.0320172309875488,0.000183750051179906
639,-0.032416820526123,0.000235196272825981
640,-0.0325560569763184,0.00035035040309849
641,-0.0331263542175293,0.000364717777332695
642,-0.0328459739685059,0.000355330399035778
643,-0.0327959060668945,0.000289898169057043
644,-0.0327630043029785,0.000381021235990597
645,-0.0322098731994629,0.00034549871290396
646,-0.0330777168273926,0.000325598434298231
647,-0.0320591926574707,0.000280976472489597
648,-0.0319786071777344,0.000346466085957628
649,-0.0313119888305664,0.000335612070471797
650,-0.0317611694335937,0.000413107232859305
651,-0.0319194793701172,0.000401658820616813
652,-0.0319724082946777,0.000329016257020563
653,-0.0321164131164551,0.000433761441284457
654,-0.0317473411560059,0.000367826632852681
655,-0.0276689529418945,0.000219017281420686
656,-0.0203847885131836,0.000158128864651091
657,-0.0360555648803711,0.000278838453347389
658,-0.0301527976989746,0.000259840814116672
659,-0.0318131446838379,0.000395442639385322
660,-0.0318813323974609,0.000353441531625692
661,-0.0312986373901367,0.000323766461122119
662,-0.0325050354003906,0.000328008513976284
663,-0.0318136215209961,0.000274273815325201
664,-0.032435417175293,0.00040060678613329
665,-0.0313496589660645,0.000301367119837325
666,-0.031745433807373,0.000284476428836828
667,-0.0323243141174316,0.000286178578697373
668,-0.0318078994750977,0.000284553148479226
669,-0.0318493843078613,0.000188446624075428
670,-0.0319070816040039,0.000150807242904755
671,-0.0318951606750488,0.000146552780193239
672,-0.0313906669616699,0.000132509262741999
673,-0.0318984985351562,0.00019333497679795
674,-0.0316166877746582,0.000201935891927837
675,-0.0314006805419922,0.00017651993791847
676,-0.0310306549072266,0.000167415346442721
677,-0.0316190719604492,0.00022606708358809
678,-0.031217098236084,0.000156843911879149
679,-0.030850887298584,0.000132114014478875
680,-0.031273365020752,0.00011833442092581
681,-0.0314121246337891,0.000165670549917912
682,-0.0314502716064453,0.000137435024525847
683,-0.0315470695495605,0.000146462766722523
684,-0.0314397811889648,0.00018916917966719
685,-0.0316710472106934,0.000154058994341344
686,-0.0318446159362793,0.000140840617172986
687,-0.0314812660217285,0.000166841226447369
688,-0.0314021110534668,0.000177685674935672
689,-0.0311975479125977,0.000183522226980971
690,-0.0310587882995605,0.000111275853702803
691,-0.0307407379150391,0.000130507115821712
692,-0.0306434631347656,0.000138899644019375
693,-0.0315313339233398,0.00014532820085782
694,-0.0316452980041504,0.000189678125815112
695,-0.0310468673706055,0.000150057555046369
696,-0.0308403968811035,0.000181298479094761
697,-0.0301470756530762,0.000133919102536794
698,-0.0314345359802246,0.000112521445704279
699,-0.0314898490905762,0.000157049631700874
700,-0.0305600166320801,0.000165895478165165
701,-0.030510425567627,0.000222244996037896
702,-0.0298428535461426,0.0001321553130152
703,-0.029937744140625,0.00014420362984799
704,-0.0307130813598633,0.000182807202598652
705,-0.0304474830627441,0.000136874692188953
706,-0.030146598815918,0.000143903734714106
707,-0.0301032066345215,0.000108808764722007
708,-0.0301990509033203,0.000131112010732084
709,-0.0292658805847168,0.000114805911076448
710,-0.0299229621887207,0.000108752329178989
711,-0.02984619140625,0.000156018320072518
712,-0.0299010276794434,0.000137709382493232
713,-0.0295925140380859,0.000149896853226811
714,-0.0289902687072754,0.000147094795812693
715,-0.0286321640014648,0.000177501311146757
716,-0.0288405418395996,0.000115007745164766
717,-0.0286822319030762,0.0000785899390490917
718,-0.0278429985046387,0.000103036554939475
719,-0.0278215408325195,0.000125711494852326
720,-0.0279836654663086,0.000132882804135529
721,-0.028693675994873,0.000151409126055494
722,-0.0280027389526367,0.000147218404906618
723,-0.0272326469421387,0.00013897492394979
724,-0.0272412300109863,0.000181519073531763
725,-0.026893138885498,0.000152456704013005
726,-0.0266885757446289,0.000163954339392407
727,-0.0265979766845703,0.00018265290758823
728,-0.0257730484008789,0.000192661095628455
729,-0.0258522033691406,0.000148261854322512
730,-0.0253629684448242,0.000164555114645171
731,-0.0242643356323242,0.000134353047401566
732,-0.0245871543884277,0.000150369371152428
733,-0.0250735282897949,0.000152199967326398
734,-0.0242037773132324,0.000117139005312697
735,-0.0235137939453125,0.00011983706163368
736,-0.0227022171020508,0.000139536599412322
737,-0.0224971771240234,0.000169679003649019
738,-0.0223588943481445,0.000219224813903639
739,-0.0227265357971191,0.000153390442775506
740,-0.022740364074707,0.00012544352247157
741,-0.0226879119873047,0.000158421924920208
742,-0.0218014717102051,0.000160911170105663
743,-0.0222492218017578,0.000139148240039333
744,-0.0221042633056641,0.000114799969407838
745,-0.0220909118652344,0.000142350068336832
746,-0.0226755142211914,0.00014344162101081
747,-0.0222940444946289,0.000175237493450064
748,-0.0223236083984375,0.000118836774534565
749,-0.0226411819458008,0.000138716182925461
750,-0.022672176361084,0.00018131352815023
751,-0.02252197265625,0.000167127172494925
752,-0.0222325325012207,0.000143073398131181
753,-0.021672248840332,0.000113771387420706
754,-0.0210361480712891,0.000135324335654005
755,-0.0227837562561035,0.000112134825096228
756,-0.0218410491943359,0.000143894254161042
757,-0.0200438499450684,0.000118919019159541
758,-0.02020263671875,0.000116605942350745
759,-0.021481990814209,0.00015307883913585
760,-0.0206480026245117,0.000139200519471991
761,-0.0216403007507324,0.000154300849975014
762,-0.02276611328125,0.000154554096831382
763,-0.0224261283874512,0.000208019083069204
764,-0.0214886665344238,0.000134126079496377
765,-0.0217933654785156,0.000148583560298022
766,-0.0230841636657715,0.00016186075614327
767,-0.0227255821228027,0.000189433426176989
768,-0.0212788581848145,0.000117824136440128
769,-0.0217995643615723,0.00011498401836635
770,-0.021914005279541,0.000147036045090462
771,-0.0215263366699219,0.000109956208637886
772,-0.0218014717102051,0.000119352254970396
773,-0.0212726593017578,0.000120667126542541
774,-0.0211191177368164,0.0000990513709919023
775,-0.021916389465332,0.000184219665893615
776,-0.0213627815246582,0.000162628736475313
777,-0.0211319923400879,0.000143998505914891
778,-0.0217528343200684,0.000130875947822698
779,-0.021827220916748,0.000133091392703396
780,-0.0217094421386719,0.000127411031437411
781,-0.0220527648925781,0.000156219305249617
782,-0.0217866897583008,0.000138200538122076
783,-0.0219311714172363,0.000128897824698433
784,-0.0210213661193848,0.00015682361502861
785,-0.0214552879333496,0.000124292706963502
786,-0.0218229293823242,0.000147341910301583
787,-0.021364688873291,0.000153248074014588
788,-0.02191162109375,0.000147717963988596
789,-0.0211343765258789,0.000214816065922814
790,-0.021998405456543,0.000153058043004172
791,-0.022303581237793,0.000128459611820089
792,-0.0223288536071777,0.000147468395983995
793,-0.0227274894714355,0.00014789333346347
794,-0.0225763320922852,0.000118622288287151
795,-0.0212841033935547,0.0000927886393602871
796,-0.022796630859375,0.000157084374632875
797,-0.0216689109802246,0.000162295643989744
798,-0.0215377807617187,0.000187177869690027
799,-0.0216784477233887,0.000149206606120499
800,-0.0217113494873047,0.000145612671091606
801,-0.0219497680664062,0.000138929106241367
802,-0.0219526290893555,0.000176725912245155
803,-0.021700382232666,0.000136151830731488
804,-0.0220150947570801,0.000119369399314382
805,-0.0212845802307129,0.000130451352483879
806,-0.0219478607177734,0.000129295870441744
807,-0.022038459777832,0.000143577877510378
808,-0.0216670036315918,0.000195002496089476
809,-0.0229711532592773,0.000157656527631279
810,-0.022066593170166,0.000154002900421169
811,-0.021479606628418,0.000141201780627109
812,-0.0224404335021973,0.00015858259046542
813,-0.0215182304382324,0.000153517869341135
814,-0.0211224555969238,0.000165387584648367
815,-0.0211353302001953,0.000145300036174307
816,-0.0219197273254395,0.000181879469135153
817,-0.021611213684082,0.000244587251310889
818,-0.0216789245605469,0.000138922559620896
819,-0.021397590637207,0.000135334416555078
820,-0.0227642059326172,0.000189524625713441
821,-0.0226988792419434,0.000127550151804356
822,-0.021277904510498,0.000151355054584432
823,-0.0215268135070801,0.000150752955552792
824,-0.0205826759338379,0.000118675946190897
825,-0.0193295478820801,0.000176633253521579
826,-0.0194244384765625,0.000138082029706865
827,-0.0204839706420898,0.000191234886875511
828,-0.0201411247253418,0.000156861307089304
829,-0.0192461013793945,0.000214477092078085
830,-0.0196046829223633,0.000161838278604466
831,-0.0193696022033691,0.000159662854152096
832,-0.0183186531066895,0.000192476900385523
833,-0.0175247192382812,0.000190180927803252
834,-0.0181303024291992,0.000164128984557306
835,-0.0180521011352539,0.000178058937725137
836,-0.0183401107788086,0.000167390898116416
837,-0.0184950828552246,0.000206430290308542
838,-0.0181622505187988,0.000153061014053118
839,-0.0186319351196289,0.000182433684161337
840,-0.0179433822631836,0.000218285197450225
841,-0.017547607421875,0.000192183713771481
842,-0.0180168151855469,0.000182558275221276
843,-0.0177288055419922,0.000197615494090737
844,-0.0174508094787598,0.000211130656995366
845,-0.0170378684997559,0.000288986922706889
846,-0.0172758102416992,0.000236187990863093
847,-0.0171103477478027,0.000156809115669762
848,-0.0172724723815918,0.000142266985253975
849,-0.0163969993591309,0.000146176839901036
850,-0.0161938667297363,0.00019971224462098
851,-0.0163102149963379,0.000209274479736956
852,-0.0157880783081055,0.000174868610285006
853,-0.015228271484375,0.000123083115200387
854,-0.0155162811279297,0.000140798636408683
855,-0.0159134864807129,0.000221071498150418
856,-0.015251636505127,0.000229762291226624
857,-0.015070915222168,0.000191918515084918
858,-0.0146288871765137,0.000178349846368889
859,-0.0152244567871094,0.000208324910126467
860,-0.0149426460266113,0.000196725236179402
861,-0.0148940086364746,0.000184683161944689
862,-0.0146017074584961,0.000188779343134439
863,-0.0142335891723633,0.000177491063098993
864,-0.0143637657165527,0.000204335710948898
865,-0.0136218070983887,0.000220325600447221
866,-0.0132408142089844,0.00017368920305479
867,-0.0131983757019043,0.000210703759748951
868,-0.012883186340332,0.00020434016188306
869,-0.0132937431335449,0.000221896877320486
870,-0.0118045806884766,0.000249381730901108
871,-0.0114908218383789,0.000172775678559197
872,-0.0110998153686523,0.000139969372974557
873,-0.0106916427612305,0.000197007047852248
874,-0.010413646697998,0.000261056041863139
875,-0.0102338790893555,0.000252765076326111
876,-0.0103869438171387,0.000206280438037998
877,-0.00965690612792969,0.000208128358606032
878,-0.00976753234863281,0.000192566658538507
879,-0.00875043869018555,0.000199105637943476
880,-0.00890350341796875,0.000186861768669962
881,-0.00851821899414063,0.000257520320896186
882,-0.00908851623535156,0.000277910579277862
883,-0.00812530517578125,0.000220618490748351
884,-0.0076603889465332,0.000228786448629362
885,-0.0068354606628418,0.000246380426120121
886,-0.00737810134887695,0.000247088163092879
887,-0.00643396377563477,0.000241341790187572
888,-0.00528573989868164,0.000214112096663328
889,-0.00494718551635742,0.000234557356524258
890,-0.00380849838256836,0.000263911167368436
891,-0.00298547744750977,0.000273536670531494
892,-0.00202274322509766,0.000324804167810163
893,-0.00118827819824219,0.000285331960572077
894,-0.000695228576660156,0.000227646673832546
895,0.000713825225830078,0.000259413438305695
896,0.00158405303955078,0.000233352237582048
897,0.00311470031738281,0.00026037230088885
898,0.00423622131347656,0.000296670897258174
899,0.00497007369995117,0.000265080290966674
900,0.00631427764892578,0.000333578862898287
901,0.00733661651611328,0.00029778470985405
902,0.00870037078857422,0.00020046678750491
903,0.00979089736938477,0.000241157063363626
904,0.0105080604553223,0.000265128320838469
905,0.0107274055480957,0.000280205029602706
906,0.0119137763977051,0.000216448356606667
907,0.0120296478271484,0.000335199903724669
908,0.0113258361816406,0.000379931208388815
909,0.0109982490539551,0.000236345817804102
910,0.0102496147155762,0.000251321682408674
911,0.0103693008422852,0.000286254842144083
912,0.00942897796630859,0.000337546823802721
913,0.0079493522644043,0.000277196230826799
914,0.00768756866455078,0.000276249672282815
915,0.00785017013549805,0.000260644616755518
916,0.00777912139892578,0.000291855504983623
917,0.00783061981201172,0.000281739346900524
918,0.00760221481323242,0.00029712426981264
919,0.00787448883056641,0.00035646503864208
920,0.00786542892456055,0.000319206062644532
921,0.00803041458129883,0.000388378523221401
922,0.00861310958862305,0.0003407647950472
923,0.00951385498046875,0.000281422811140793
924,0.0102176666259766,0.000386029646395313
925,0.0106315612792969,0.000286546997325151
926,0.0112709999084473,0.000274664825783464
927,0.0118584632873535,0.000402328508861526
928,0.0124287605285645,0.000390592216069647
929,0.013338565826416,0.000328800572095525
930,0.014319896697998,0.000397085982448347
931,0.0159168243408203,0.000408493343793608
932,0.0165596008300781,0.000340027358411322
933,0.017845630645752,0.000327875393632337
934,0.0185422897338867,0.000442669278881185
935,0.020237922668457,0.000369100298520565
936,0.0218477249145508,0.000306869811844647
937,0.0231962203979492,0.000414689351456274
938,0.0244054794311523,0.000355616955855766
939,0.0267925262451172,0.000344676422060441
940,0.0278191566467285,0.000451643080001933
941,0.0292463302612305,0.000492288123168964
942,0.0309786796569824,0.000505961750231606
943,0.0324020385742187,0.000327203420388452
944,0.0347404479980469,0.000234801511562578
945,0.0374999046325684,0.000504059956639372
946,0.0403957366943359,0.000452367447877175
947,0.042290210723877,0.00042585589526684
948,0.0459713935852051,0.000359128980547401
949,0.0497479438781738,0.000471003129136583
950,0.052980899810791,0.00035937201845964
951,0.0566167831420898,0.000321024397277363
952,0.0600376129150391,0.000338128318794021
953,0.0645842552185059,0.000395184962050472
954,0.0676765441894531,0.000491903696283413
955,0.0715861320495606,0.000520758573809251
956,0.0747137069702148,0.000421813071747713
957,0.0770258903503418,0.000481045274336512
958,0.0809245109558106,0.000323614733780385
959,0.0832948684692383,0.000461483780177753
960,0.086883544921875,0.000464845554163982
961,0.0870237350463867,0.000719108378170665
962,0.0902481079101563,0.000682223172183477
963,0.0923495292663574,0.000529199025480887
964,0.0955801010131836,0.00070080463679786
965,0.0950231552124023,0.000577885717573804
966,0.0977272987365723,0.000480083856575587
967,0.0986213684082031,0.000618581127201523
968,0.101691722869873,0.000697328329606009
969,0.101661682128906,0.000766706702439145
970,0.103212356567383,0.000840567482120338
971,0.103856563568115,0.000716229094375807
972,0.105253219604492,0.000790461976362947
973,0.105726718902588,0.00112509644114857
974,0.107347965240479,0.000943642303340744
975,0.106710910797119,0.000809902544034691
976,0.109550476074219,0.000978319256889153
977,0.109030246734619,0.000744560113449454
978,0.111794471740723,0.000859433600205068
979,0.110390663146973,0.000986082641343753
980,0.111995697021484,0.000909611343406887
981,0.112106800079346,0.000557063364658746
982,0.113142967224121,0.000662089038075184
983,0.11272144317627,0.00123010826885543
984,0.113357543945312,0.000936972275858455
985,0.112969875335693,0.000655673113366441
986,0.114209651947021,0.000798120001758214
987,0.115408420562744,0.0011434423813373
988,0.112380981445312,0.000988411544232278
989,0.112143993377686,0.00097511601609857
990,0.113921165466309,0.000962634905736542
991,0.112699508666992,0.000933253036559867
992,0.111886978149414,0.00120172046136492
993,0.111624240875244,0.00127264612713717
994,0.11058235168457,0.0013225726513544
995,0.112289428710937,0.00107094526033732
996,0.107452869415283,0.000944520891770139
997,0.108923435211182,0.000939206046250311
998,0.107452392578125,0.0012045023654058
999,0.108334064483643,0.00132841320977834
1000,0.109281063079834,0.00126212877957
1001,0.104252338409424,0.00138947173313381
1002,0.106800079345703,0.00109108344364775
1003,0.103843212127686,0.00107184168768018
1004,0.106356143951416,0.00183461161684438
1005,0.103373050689697,0.00129670532535628
1006,0.102219581604004,0.00131893675134932
1007,0.103630065917969,0.00120908453130529
1008,0.100181102752686,0.00124952154390468
1009,0.0990848541259766,0.00110365461638831
1010,0.0968813896179199,0.00188577274236515
1011,0.0970287322998047,0.00147023797246654
1012,0.0941882133483887,0.00179337840293473
1013,0.094212532043457,0.00195366136815413
1014,0.093839168548584,0.00171561317952224
1015,0.0897531509399414,0.00180470259565175
1016,0.0889196395874023,0.00203526164933308
1017,0.0924181938171387,0.00189896840650684
1018,0.0837554931640625,0.00182050207280602
1019,0.0877928733825684,0.00245030688035241
1020,0.0796241760253906,0.00287586684738233
1021,0.0795412063598633,0.00172197986697111
1022,0.0737638473510742,0.00166579578912507
1023,0.0805363655090332,0.00221615197972403
1024,0.0757851600646973,0.00323443139989947
1025,0.0711708068847656,0.00251158926349718
1026,0.0723867416381836,0.00178651685220354
1027,0.0692548751831055,0.00240837642296739
1028,0.0688071250915527,0.00215932083531197
1029,0.0645713806152344,0.0021497029132515
1030,0.067875862121582,0.00264078462558398
1031,0.0649843215942383,0.00224169216931796
1032,0.0630497932434082,0.00279731518994897
1033,0.0626358985900879,0.00230417819780485
1034,0.0636930465698242,0.00227289382096746
1035,0.0583586692810059,0.00257086823493589
1036,0.055180549621582,0.00288128607224662
1037,0.0551133155822754,0.00305861656014815
1038,0.0567293167114258,0.0026781674347212
1039,0.0556306838989258,0.00256165939592692
1040,0.050262451171875,0.0035401706013412
1041,0.0535778999328613,0.00305793137765168
1042,0.0442862510681152,0.00342538573832103
1043,0.0514631271362305,0.00285881465882945
1044,0.045201301574707,0.00334017645980061
1045,0.0571751594543457,0.00270584412343719
1046,0.0464158058166504,0.00316942349486504
1047,0.0473637580871582,0.00439548482085857
1048,0.0371537208557129,0.00381023909412433
1049,0.0473513603210449,0.00343658283309145
1050,0.045720100402832,0.00423612126451676
1051,0.0380725860595703,0.00393250700590476
1052,0.0442075729370117,0.00555704903065467
1053,0.0429863929748535,0.00510529074325731
1054,0.0440988540649414,0.00497455245525745
1055,0.0403590202331543,0.00550163463663329
1056,0.0411896705627441,0.0054938421890457
1057,0.0368809700012207,0.0061901806120645
1058,0.0324654579162598,0.00493073785658263
1059,0.0401458740234375,0.00489937833180286
1060,0.0420422554016113,0.00527530566432743
1061,0.0319223403930664,0.00645127454185733
1062,0.0317931175231934,0.00629535549752253
1063,0.0393528938293457,0.00518349845930879
1064,0.0299568176269531,0.00702355281408438
1065,0.0463762283325195,0.00676348299472713
1066,0.0298867225646973,0.00665367191157795
1067,0.0378689765930176,0.00643566449858129
1068,0.0329899787902832,0.00718324410861805
1069,0.0361614227294922,0.00563146484591765
1070,0.0350980758666992,0.00808410586929175
1071,0.036618709564209,0.00772438425153198
1072,0.0391635894775391,0.00633678973354182
1073,0.0440101623535156,0.00489538481531386
1074,0.0401005744934082,0.00610961609191514
1075,0.0393567085266113,0.00795051732809267
1076,0.0205507278442383,0.00834018108034117
1077,0.0461573600769043,0.00789880762638515
1078,0.0344376564025879,0.00756097248508395
1079,0.0261836051940918,0.00848322804041523
1080,0.0463581085205078,0.00743740364621363
1081,0.0264449119567871,0.0109196653736811
1082,0.0384707450866699,0.00997453397412743
1083,0.0307555198669434,0.0106246763067866
1084,0.0590338706970215,0.0147891596787409
1085,0.0129761695861816,0.0122979402965276
1086,0.0446157455444336,0.0105546710552819
1087,0.0150322914123535,0.00896240533648394
1088,0.0627250671386719,0.0111191247148934
1089,0.0282201766967773,0.0144824478036001
1090,0.0238504409790039,0.0141538408599958
1091,0.0175561904907227,0.0135195282167587
1092,0.0634713172912598,0.0113695898499739
1093,0.0384435653686523,0.00947599057376726
1094,0.0463566780090332,0.00847422097206878
1095,0.0478434562683106,0.0138680148885266
1096,0.0489306449890137,0.0138854645110344
1097,0.0450444221496582,0.0156531081102264
1098,0.0844178199768066,0.0167423338641143
1099,0.0365843772888184,0.0151863514972221
1100,0.0643014907836914,0.0123342371149815
